Method:,Hadamard 1,,
Host Date-Time:,29/4/26 @ 16:37:45,,
Header Version:,1,,
System Temp (C):,29.51,,
Detector Temp (C):,28.38,,
Humidity (%):,33.31,,
Lamp PD:,3796,,
Shift Vector Coefficients:,-4.23807,0.038015,-8.48182e-05,,
Pixel to Wavelength Coefficients:,1814.7,-0.917204,-0.000244398,,
Serial Number:,6460024,,
Scan Config Name:,Hadamard 1,,
Scan Config Type:,Slew,,
Section 1,,
Start wavelength (nm):,900,,
End wavelength (nm):,1700,,
Pattern Pixel Width (nm):,   7.03,,,,
Exposure (ms):,  0.635,,,,
Digital Resolution:,228,,
Num Repeats:,6,,
PGA Gain:,16,,
Total Measurement Time in sec:,  2.453,,
Wavelength (nm),Absorbance (AU),Reference Signal (unitless),Sample Signal (unitless)
901.552059,-0.021750,23756.000000,24976.000000
905.500242,-0.016158,26065.000000,27053.000000
909.444026,-0.017989,28446.000000,29649.000000
913.383411,-0.010659,31151.000000,31925.000000
917.318397,-0.008306,34594.000000,35262.000000
921.248983,-0.005995,38706.000000,39244.000000
925.175171,-0.009065,43333.000000,44247.000000
929.096959,-0.006888,48106.000000,48875.000000
933.014348,-0.006184,52854.000000,53612.000000
936.927338,-0.008190,57207.000000,58296.000000
942.137815,-0.009235,62583.000000,63928.000000
946.040540,-0.008861,66412.000000,67781.000000
949.938866,-0.010206,70192.000000,71861.000000
953.832793,-0.009618,73953.000000,75609.000000
957.722320,-0.010236,77741.000000,79595.000000
961.607449,-0.009789,81459.000000,83316.000000
965.488178,-0.009539,84970.000000,86857.000000
969.364509,-0.008112,88307.000000,89972.000000
973.236440,-0.011305,91422.000000,93833.000000
977.103972,-0.010116,94242.000000,96463.000000
980.967105,-0.011095,96650.000000,99151.000000
984.825838,-0.008850,98706.000000,100738.000000
988.680173,-0.009366,100691.000000,102886.000000
992.530108,-0.009770,102102.000000,104425.000000
997.656512,-0.008335,103062.000000,105059.000000
1001.496183,-0.008124,103488.000000,105442.000000
1005.331454,-0.008492,103668.000000,105715.000000
1009.162327,-0.008468,103604.000000,105644.000000
1012.988800,-0.008970,103501.000000,105661.000000
1016.810874,-0.008483,103473.000000,105514.000000
1020.628549,-0.008763,103180.000000,105283.000000
1024.441824,-0.007531,102848.000000,104647.000000
1028.250701,-0.008709,102542.000000,104619.000000
1032.055178,-0.008331,102330.000000,104312.000000
1035.855257,-0.008720,102161.000000,104233.000000
1039.650936,-0.009072,101990.000000,104143.000000
1043.442216,-0.009082,101741.000000,103891.000000
1048.490413,-0.007970,101666.000000,103549.000000
1052.271428,-0.009194,101700.000000,103876.000000
1056.048044,-0.009563,101777.000000,104043.000000
1059.820261,-0.009980,101906.000000,104275.000000
1063.588079,-0.009423,102259.000000,104502.000000
1067.351497,-0.009708,102763.000000,105086.000000
1071.110517,-0.011164,103190.000000,105877.000000
1074.865137,-0.010400,103645.000000,106157.000000
1078.615358,-0.011405,104247.000000,107021.000000
1082.361180,-0.012152,104844.000000,107819.000000
1086.102603,-0.012284,105404.000000,108428.000000
1089.839627,-0.014103,105830.000000,109323.000000
1093.572251,-0.013133,106541.000000,109812.000000
1097.300477,-0.012767,106997.000000,110189.000000
1102.264601,-0.012749,107655.000000,110862.000000
1105.982562,-0.011161,108209.000000,111026.000000
1109.696123,-0.010437,108541.000000,111181.000000
1113.405285,-0.007964,108883.000000,110898.000000
1117.110049,-0.005694,109111.000000,110551.000000
1120.810413,-0.002627,109449.000000,110113.000000
1124.506378,0.001216,110148.000000,109840.000000
1128.197943,0.002047,110387.000000,109868.000000
1131.885110,0.001531,110542.000000,110153.000000
1135.567878,-0.002365,110818.000000,111423.000000
1139.246246,-0.005526,111041.000000,112463.000000
1142.920215,-0.007135,111319.000000,113163.000000
1146.589785,-0.010130,111575.000000,114208.000000
1150.254956,-0.010233,112030.000000,114701.000000
1155.135007,-0.009726,112594.000000,115144.000000
1158.789913,-0.008933,113176.000000,115528.000000
1162.440420,-0.008398,113756.000000,115977.000000
1166.086528,-0.007457,114495.000000,116478.000000
1169.728237,-0.007168,115248.000000,117166.000000
1173.365546,-0.006621,116196.000000,117981.000000
1176.998457,-0.007032,117260.000000,119174.000000
1180.626968,-0.009455,118314.000000,120918.000000
1184.251080,-0.011431,119420.000000,122605.000000
1187.870793,-0.012296,120660.000000,124125.000000
1191.486107,-0.013110,122104.000000,125846.000000
1195.097021,-0.015639,123408.000000,127933.000000
1198.703537,-0.016340,124879.000000,129667.000000
1203.505381,-0.017103,127171.000000,132279.000000
1207.101631,-0.018446,128929.000000,134523.000000
1210.693483,-0.018278,130624.000000,136239.000000
1214.280935,-0.017590,132432.000000,137906.000000
1217.863989,-0.018469,134356.000000,140193.000000
1221.442643,-0.018548,136434.000000,142387.000000
1225.016898,-0.018285,138254.000000,144199.000000
1228.586754,-0.018053,140110.000000,146057.000000
1232.152210,-0.018944,142307.000000,148652.000000
1235.713268,-0.019181,144480.000000,151004.000000
1239.269926,-0.018258,146375.000000,152660.000000
1242.822185,-0.019372,148395.000000,155164.000000
1246.370045,-0.019163,150778.000000,157580.000000
1249.913506,-0.019133,153060.000000,159954.000000
1254.631278,-0.018427,155918.000000,162676.000000
1258.164474,-0.017941,157931.000000,164592.000000
1261.693271,-0.017448,160225.000000,166793.000000
1265.217669,-0.018144,162531.000000,169465.000000
1268.737667,-0.017447,164471.000000,171213.000000
1272.253267,-0.018102,166342.000000,173422.000000
1275.764467,-0.017920,168611.000000,175714.000000
1279.271269,-0.018179,170630.000000,177924.000000
1282.773671,-0.018444,172186.000000,179656.000000
1286.271674,-0.018540,173503.000000,181070.000000
1289.765277,-0.019087,175078.000000,182944.000000
1293.254482,-0.018266,176321.000000,183895.000000
1296.739287,-0.017429,177150.000000,184404.000000
1300.219694,-0.017456,178114.000000,185419.000000
1304.853392,-0.016182,179516.000000,186331.000000
1308.323534,-0.015806,180112.000000,186788.000000
1311.789276,-0.015257,180427.000000,186878.000000
1315.250620,-0.015986,180849.000000,187630.000000
1318.707564,-0.015693,181295.000000,187966.000000
1322.160109,-0.015117,181387.000000,187812.000000
1325.608255,-0.014906,181312.000000,187643.000000
1329.052002,-0.014670,181274.000000,187502.000000
1332.491349,-0.014305,181109.000000,187174.000000
1335.926297,-0.014050,180689.000000,186630.000000
1339.356847,-0.012771,179848.000000,185215.000000
1342.782997,-0.011402,179242.000000,184010.000000
1346.204748,-0.009685,178573.000000,182600.000000
1349.622099,-0.008210,177890.000000,181285.000000
1354.171725,-0.005710,176659.000000,178997.000000
1357.578812,-0.004491,175938.000000,177767.000000
1360.981500,-0.003973,175417.000000,177029.000000
1364.379789,-0.003666,174939.000000,176422.000000
1367.773679,-0.004437,174429.000000,176220.000000
1371.163169,-0.003414,174092.000000,175466.000000
1374.548260,-0.004268,173838.000000,175555.000000
1377.928953,-0.002693,173647.000000,174727.000000
1381.305246,-0.002727,173017.000000,174107.000000
1384.677139,-0.002537,172585.000000,173596.000000
1388.044634,-0.002095,172273.000000,173106.000000
1391.407730,-0.000813,171871.000000,172193.000000
1394.766426,-0.001064,171212.000000,171632.000000
1399.237845,0.001207,170477.000000,170004.000000
1402.586276,0.001943,170057.000000,169298.000000
1405.930309,0.002874,169522.000000,168404.000000
1409.269942,0.004011,169040.000000,167486.000000
1412.605176,0.004823,168685.000000,166822.000000
1415.936011,0.004903,168440.000000,166549.000000
1419.262447,0.004579,168277.000000,166512.000000
1422.584484,0.003774,168052.000000,166598.000000
1425.902122,0.002319,168094.000000,167199.000000
1429.215360,0.002180,168176.000000,167334.000000
1432.524199,0.001559,168237.000000,167634.000000
1435.828639,-0.000160,168356.000000,168418.000000
1439.128680,-0.001334,168675.000000,169194.000000
1442.424322,-0.002275,168916.000000,169803.000000
1446.811668,-0.002964,169258.000000,170417.000000
1450.097045,-0.003603,169379.000000,170790.000000
1453.378023,-0.004466,169391.000000,171142.000000
1456.654602,-0.004237,169334.000000,170994.000000
1459.926782,-0.004722,169305.000000,171156.000000
1463.194562,-0.005712,169126.000000,171365.000000
1466.457943,-0.005828,168919.000000,171201.000000
1469.716926,-0.006788,168594.000000,171250.000000
1472.971509,-0.007156,168234.000000,171029.000000
1476.221692,-0.007896,167663.000000,170739.000000
1479.467477,-0.007222,167217.000000,170021.000000
1482.708863,-0.008146,166625.000000,169780.000000
1485.945849,-0.010134,166131.000000,170053.000000
1489.178436,-0.009881,165518.000000,169327.000000
1493.481710,-0.009170,164484.000000,167994.000000
1496.704032,-0.008504,164054.000000,167298.000000
1499.921956,-0.009019,163401.000000,166830.000000
1503.135480,-0.008745,162290.000000,165591.000000
1506.344605,-0.009240,161374.000000,164844.000000
1509.549331,-0.009032,160366.000000,163736.000000
1512.749658,-0.009727,159378.000000,162988.000000
1515.945585,-0.010169,158285.000000,162035.000000
1519.137114,-0.009807,157316.000000,160909.000000
1522.324243,-0.009771,156147.000000,159700.000000
1525.506973,-0.009754,155113.000000,158636.000000
1528.685304,-0.010104,154000.000000,157625.000000
1531.859236,-0.009407,152588.000000,155929.000000
1535.028769,-0.010507,151256.000000,154960.000000
1539.247969,-0.009766,149501.000000,152901.000000
1542.407237,-0.010324,148026.000000,151587.000000
1545.562106,-0.011273,146484.000000,150336.000000
1548.712576,-0.010974,144932.000000,148641.000000
1551.858646,-0.011333,143312.000000,147101.000000
1555.000318,-0.010552,141623.000000,145106.000000
1558.137590,-0.009802,139790.000000,142981.000000
1561.270463,-0.009965,137958.000000,141160.000000
1564.398937,-0.010708,136203.000000,139603.000000
1567.523012,-0.010870,134303.000000,137707.000000
1570.642687,-0.010136,132340.000000,135465.000000
1573.757964,-0.008990,130373.000000,133100.000000
1576.868841,-0.008242,128194.000000,130650.000000
1581.009834,-0.008006,125453.000000,127787.000000
1584.110447,-0.006459,123268.000000,125115.000000
1587.206660,-0.006360,121128.000000,122915.000000
1590.298475,-0.005459,118983.000000,120488.000000
1593.385890,-0.005503,116601.000000,118088.000000
1596.468906,-0.005275,114492.000000,115891.000000
1599.547522,-0.004530,112247.000000,113424.000000
1602.621740,-0.001158,110113.000000,110407.000000
1605.691559,-0.001283,107845.000000,108164.000000
1608.756978,0.001172,105764.000000,105479.000000
1611.817998,0.004443,103762.000000,102706.000000
1614.874619,0.004986,101454.000000,100296.000000
1617.926841,0.007057,99141.000000,97543.000000
1620.974664,0.008123,96810.000000,95016.000000
1625.031584,0.011073,93749.000000,91389.000000
1628.069142,0.013300,91480.000000,88721.000000
1631.102301,0.017226,89180.000000,85712.000000
1634.131061,0.019656,86957.000000,83109.000000
1637.155422,0.027375,84664.000000,79492.000000
1640.175383,0.033750,82560.000000,76387.000000
1643.190945,0.043708,80299.000000,72611.000000
1646.202108,0.051162,77863.000000,69210.000000
1649.208872,0.059739,75323.000000,65643.000000
1652.211237,0.066452,72646.000000,62339.000000
1655.209203,0.069898,69695.000000,59334.000000
1658.202769,0.072098,66120.000000,56006.000000
1661.191937,0.064964,61928.000000,53324.000000
1664.176705,0.053526,57108.000000,50486.000000
1668.149553,0.027076,49420.000000,46433.000000
1671.124056,0.006423,43252.000000,42617.000000
1674.094160,-0.014938,37007.000000,38302.000000
1677.059866,-0.032132,31448.000000,33863.000000
1680.021172,-0.046649,26509.000000,29515.000000
1682.978078,-0.048746,22318.000000,24969.000000
1685.930586,-0.049473,18913.000000,21195.000000
1688.878695,-0.051631,16215.000000,18262.000000
1691.822404,-0.054286,13947.000000,15804.000000
1694.761714,-0.052908,12072.000000,13636.000000
1697.696625,-0.046888,10552.000000,11755.000000
1700.627137,-0.046143,9233.000000,10268.000000
