Method:,Hadamard 1,,
Host Date-Time:,29/4/26 @ 16:26:24,,
Header Version:,1,,
System Temp (C):,29.68,,
Detector Temp (C):,27.45,,
Humidity (%):,35.42,,
Lamp PD:,3797,,
Shift Vector Coefficients:,-4.23807,0.038015,-8.48182e-05,,
Pixel to Wavelength Coefficients:,1814.7,-0.917204,-0.000244398,,
Serial Number:,6460024,,
Scan Config Name:,Hadamard 1,,
Scan Config Type:,Slew,,
Section 1,,
Start wavelength (nm):,900,,
End wavelength (nm):,1700,,
Pattern Pixel Width (nm):,   7.03,,,,
Exposure (ms):,  0.635,,,,
Digital Resolution:,228,,
Num Repeats:,6,,
PGA Gain:,16,,
Total Measurement Time in sec:,  2.494,,
Wavelength (nm),Absorbance (AU),Reference Signal (unitless),Sample Signal (unitless)
901.552059,-0.024125,23756.000000,25113.000000
905.500242,-0.018367,26065.000000,27191.000000
909.444026,-0.020035,28446.000000,29789.000000
913.383411,-0.013358,31151.000000,32124.000000
917.318397,-0.010481,34594.000000,35439.000000
921.248983,-0.010059,38706.000000,39613.000000
925.175171,-0.012467,43333.000000,44595.000000
929.096959,-0.009792,48106.000000,49203.000000
933.014348,-0.009324,52854.000000,54001.000000
936.927338,-0.010219,57207.000000,58569.000000
942.137815,-0.011376,62583.000000,64244.000000
946.040540,-0.010531,66412.000000,68042.000000
949.938866,-0.011286,70192.000000,72040.000000
953.832793,-0.010862,73953.000000,75826.000000
957.722320,-0.011663,77741.000000,79857.000000
961.607449,-0.010872,81459.000000,83524.000000
965.488178,-0.010269,84970.000000,87003.000000
969.364509,-0.009211,88307.000000,90200.000000
973.236440,-0.012410,91422.000000,94072.000000
977.103972,-0.010692,94242.000000,96591.000000
980.967105,-0.012132,96650.000000,99388.000000
984.825838,-0.009767,98706.000000,100951.000000
988.680173,-0.009868,100691.000000,103005.000000
992.530108,-0.010464,102102.000000,104592.000000
997.656512,-0.009008,103062.000000,105222.000000
1001.496183,-0.008906,103488.000000,105632.000000
1005.331454,-0.009321,103668.000000,105917.000000
1009.162327,-0.009376,103604.000000,105865.000000
1012.988800,-0.009808,103501.000000,105865.000000
1016.810874,-0.009367,103473.000000,105729.000000
1020.628549,-0.009801,103180.000000,105535.000000
1024.441824,-0.008704,102848.000000,104930.000000
1028.250701,-0.009410,102542.000000,104788.000000
1032.055178,-0.009309,102330.000000,104547.000000
1035.855257,-0.009889,102161.000000,104514.000000
1039.650936,-0.009952,101990.000000,104354.000000
1043.442216,-0.010192,101741.000000,104157.000000
1048.490413,-0.009160,101666.000000,103833.000000
1052.271428,-0.010338,101700.000000,104150.000000
1056.048044,-0.010864,101777.000000,104355.000000
1059.820261,-0.010887,101906.000000,104493.000000
1063.588079,-0.010751,102259.000000,104822.000000
1067.351497,-0.011037,102763.000000,105408.000000
1071.110517,-0.012164,103190.000000,106121.000000
1074.865137,-0.011773,103645.000000,106493.000000
1078.615358,-0.012755,104247.000000,107354.000000
1082.361180,-0.013788,104844.000000,108226.000000
1086.102603,-0.014059,105404.000000,108872.000000
1089.839627,-0.015665,105830.000000,109717.000000
1093.572251,-0.014826,106541.000000,110241.000000
1097.300477,-0.015007,106997.000000,110759.000000
1102.264601,-0.015420,107655.000000,111546.000000
1105.982562,-0.014143,108209.000000,111791.000000
1109.696123,-0.013927,108541.000000,112078.000000
1113.405285,-0.012711,108883.000000,112117.000000
1117.110049,-0.011280,109111.000000,111982.000000
1120.810413,-0.009510,109449.000000,111872.000000
1124.506378,-0.007001,110148.000000,111938.000000
1128.197943,-0.007025,110387.000000,112187.000000
1131.885110,-0.007123,110542.000000,112370.000000
1135.567878,-0.010474,110818.000000,113523.000000
1139.246246,-0.013193,111041.000000,114466.000000
1142.920215,-0.013943,111319.000000,114951.000000
1146.589785,-0.016753,111575.000000,115963.000000
1150.254956,-0.017118,112030.000000,116534.000000
1155.135007,-0.016990,112594.000000,117086.000000
1158.789913,-0.016742,113176.000000,117624.000000
1162.440420,-0.016430,113756.000000,118142.000000
1166.086528,-0.015686,114495.000000,118706.000000
1169.728237,-0.015735,115248.000000,119500.000000
1173.365546,-0.015749,116196.000000,120487.000000
1176.998457,-0.016112,117260.000000,121692.000000
1180.626968,-0.018557,118314.000000,123479.000000
1184.251080,-0.019788,119420.000000,124987.000000
1187.870793,-0.020737,120660.000000,126561.000000
1191.486107,-0.020999,122104.000000,128153.000000
1195.097021,-0.023081,123408.000000,130144.000000
1198.703537,-0.023808,124879.000000,131916.000000
1203.505381,-0.024247,127171.000000,134473.000000
1207.101631,-0.025323,128929.000000,136670.000000
1210.693483,-0.025170,130624.000000,138418.000000
1214.280935,-0.024771,132432.000000,140205.000000
1217.863989,-0.025225,134356.000000,142391.000000
1221.442643,-0.025942,136434.000000,144832.000000
1225.016898,-0.025530,138254.000000,146625.000000
1228.586754,-0.025570,140110.000000,148607.000000
1232.152210,-0.026478,142307.000000,151253.000000
1235.713268,-0.026578,144480.000000,153598.000000
1239.269926,-0.025693,146375.000000,155296.000000
1242.822185,-0.027001,148395.000000,157914.000000
1246.370045,-0.026864,150778.000000,160399.000000
1249.913506,-0.026763,153060.000000,162789.000000
1254.631278,-0.026015,155918.000000,165543.000000
1258.164474,-0.025524,157931.000000,167491.000000
1261.693271,-0.025082,160225.000000,169751.000000
1265.217669,-0.025654,162531.000000,172421.000000
1268.737667,-0.025168,164471.000000,174284.000000
1272.253267,-0.025927,166342.000000,176575.000000
1275.764467,-0.025831,168611.000000,178944.000000
1279.271269,-0.026254,170630.000000,181263.000000
1282.773671,-0.026510,172186.000000,183024.000000
1286.271674,-0.026671,173503.000000,184492.000000
1289.765277,-0.027149,175078.000000,186372.000000
1293.254482,-0.026447,176321.000000,187392.000000
1296.739287,-0.025720,177150.000000,187958.000000
1300.219694,-0.025750,178114.000000,188994.000000
1304.853392,-0.024858,179516.000000,190091.000000
1308.323534,-0.024469,180112.000000,190551.000000
1311.789276,-0.023992,180427.000000,190675.000000
1315.250620,-0.024844,180849.000000,191496.000000
1318.707564,-0.024967,181295.000000,192023.000000
1322.160109,-0.024478,181387.000000,191904.000000
1325.608255,-0.024440,181312.000000,191808.000000
1329.052002,-0.024207,181274.000000,191665.000000
1332.491349,-0.024202,181109.000000,191488.000000
1335.926297,-0.024158,180689.000000,191025.000000
1339.356847,-0.023590,179848.000000,189887.000000
1342.782997,-0.022604,179242.000000,188818.000000
1346.204748,-0.021477,178573.000000,187626.000000
1349.622099,-0.020725,177890.000000,186585.000000
1354.171725,-0.018872,176659.000000,184505.000000
1357.578812,-0.018099,175938.000000,183425.000000
1360.981500,-0.017864,175417.000000,182783.000000
1364.379789,-0.017643,174939.000000,182192.000000
1367.773679,-0.018493,174429.000000,182017.000000
1371.163169,-0.017602,174092.000000,181293.000000
1374.548260,-0.018318,173838.000000,181327.000000
1377.928953,-0.017163,173647.000000,180647.000000
1381.305246,-0.017029,173017.000000,179936.000000
1384.677139,-0.017253,172585.000000,179579.000000
1388.044634,-0.016881,172273.000000,179101.000000
1391.407730,-0.015690,171871.000000,178194.000000
1394.766426,-0.015806,171212.000000,177558.000000
1399.237845,-0.013997,170477.000000,176061.000000
1402.586276,-0.013487,170057.000000,175421.000000
1405.930309,-0.012888,169522.000000,174628.000000
1409.269942,-0.011890,169040.000000,173732.000000
1412.605176,-0.011366,168685.000000,173158.000000
1415.936011,-0.010990,168440.000000,172757.000000
1419.262447,-0.011356,168277.000000,172735.000000
1422.584484,-0.011984,168052.000000,172754.000000
1425.902122,-0.013226,168094.000000,173292.000000
1429.215360,-0.013666,168176.000000,173552.000000
1432.524199,-0.013831,168237.000000,173681.000000
1435.828639,-0.015671,168356.000000,174542.000000
1439.128680,-0.016516,168675.000000,175213.000000
1442.424322,-0.017355,168916.000000,175803.000000
1446.811668,-0.017843,169258.000000,176357.000000
1450.097045,-0.017888,169379.000000,176501.000000
1453.378023,-0.018749,169391.000000,176864.000000
1456.654602,-0.018564,169334.000000,176729.000000
1459.926782,-0.018709,169305.000000,176758.000000
1463.194562,-0.019552,169126.000000,176914.000000
1466.457943,-0.019720,168919.000000,176766.000000
1469.716926,-0.020719,168594.000000,176832.000000
1472.971509,-0.020637,168234.000000,176421.000000
1476.221692,-0.021529,167663.000000,176184.000000
1479.467477,-0.020799,167217.000000,175420.000000
1482.708863,-0.021486,166625.000000,175076.000000
1485.945849,-0.023069,166131.000000,175194.000000
1489.178436,-0.022689,165518.000000,174395.000000
1493.481710,-0.022083,164484.000000,173064.000000
1496.704032,-0.021455,164054.000000,172362.000000
1499.921956,-0.021212,163401.000000,171580.000000
1503.135480,-0.021333,162290.000000,170461.000000
1506.344605,-0.021713,161374.000000,169647.000000
1509.549331,-0.021493,160366.000000,168502.000000
1512.749658,-0.021576,159378.000000,167496.000000
1515.945585,-0.022141,158285.000000,166564.000000
1519.137114,-0.021697,157316.000000,165375.000000
1522.324243,-0.021443,156147.000000,164050.000000
1525.506973,-0.021619,155113.000000,163030.000000
1528.685304,-0.021758,154000.000000,161912.000000
1531.859236,-0.021297,152588.000000,160257.000000
1535.028769,-0.022416,151256.000000,159268.000000
1539.247969,-0.021839,149501.000000,157211.000000
1542.407237,-0.022176,148026.000000,155781.000000
1545.562106,-0.023172,146484.000000,154512.000000
1548.712576,-0.022874,144932.000000,152770.000000
1551.858646,-0.023708,143312.000000,151353.000000
1555.000318,-0.022472,141623.000000,149144.000000
1558.137590,-0.021942,139790.000000,147034.000000
1561.270463,-0.022031,137958.000000,145137.000000
1564.398937,-0.022729,136203.000000,143521.000000
1567.523012,-0.022870,134303.000000,141565.000000
1570.642687,-0.022076,132340.000000,139241.000000
1573.757964,-0.021273,130373.000000,136918.000000
1576.868841,-0.020296,128194.000000,134327.000000
1581.009834,-0.020352,125453.000000,131472.000000
1584.110447,-0.018789,123268.000000,128718.000000
1587.206660,-0.018805,121128.000000,126488.000000
1590.298475,-0.017814,118983.000000,123965.000000
1593.385890,-0.018349,116601.000000,121633.000000
1596.468906,-0.017851,114492.000000,119296.000000
1599.547522,-0.017733,112247.000000,116925.000000
1602.621740,-0.014491,110113.000000,113849.000000
1605.691559,-0.014899,107845.000000,111609.000000
1608.756978,-0.013543,105764.000000,109114.000000
1611.817998,-0.010376,103762.000000,106271.000000
1614.874619,-0.010455,101454.000000,103926.000000
1617.926841,-0.009129,99141.000000,101247.000000
1620.974664,-0.007587,96810.000000,98516.000000
1625.031584,-0.005588,93749.000000,94963.000000
1628.069142,-0.003447,91480.000000,92209.000000
1631.102301,0.000278,89180.000000,89123.000000
1634.131061,0.003294,86957.000000,86300.000000
1637.155422,0.011287,84664.000000,82492.000000
1640.175383,0.019016,82560.000000,79023.000000
1643.190945,0.031326,80299.000000,74711.000000
1646.202108,0.042933,77863.000000,70534.000000
1649.208872,0.055775,75323.000000,66245.000000
1652.211237,0.067470,72646.000000,62193.000000
1655.209203,0.075838,69695.000000,58528.000000
1658.202769,0.083713,66120.000000,54528.000000
1661.191937,0.080358,61928.000000,51467.000000
1664.176705,0.069534,57108.000000,48659.000000
1668.149553,0.041976,49420.000000,44867.000000
1671.124056,0.018849,43252.000000,41415.000000
1674.094160,-0.000961,37007.000000,37089.000000
1677.059866,-0.019075,31448.000000,32860.000000
1680.021172,-0.033033,26509.000000,28604.000000
1682.978078,-0.035913,22318.000000,24242.000000
1685.930586,-0.036009,18913.000000,20548.000000
1688.878695,-0.044220,16215.000000,17953.000000
1691.822404,-0.049172,13947.000000,15619.000000
1694.761714,-0.045520,12072.000000,13406.000000
1697.696625,-0.042170,10552.000000,11628.000000
1700.627137,-0.043215,9233.000000,10199.000000
